Euler-Cromer Method

Time (s)	Angle (deg)		Velocity		Energy
0.000000	3.000000		0.000000		0.006722
0.010000	2.997057		-0.005137		0.006709
0.020000	2.991174		-0.010268		0.006696
0.030000	2.982356		-0.015389		0.006683
0.040000	2.970613		-0.020496		0.006670
0.050000	2.955956		-0.025582		0.006657
0.060000	2.938399		-0.030643		0.006644
0.070000	2.917959		-0.035674		0.006632
0.080000	2.894657		-0.040670		0.006620
0.090000	2.868515		-0.045626		0.006609
0.100000	2.839559		-0.050538		0.006598
0.110000	2.807818		-0.055399		0.006587
0.120000	2.773322		-0.060207		0.006577
0.130000	2.736105		-0.064955		0.006568
0.140000	2.696205		-0.069640		0.006559
0.150000	2.653659		-0.074256		0.006551
0.160000	2.608510		-0.078800		0.006543
0.170000	2.560802		-0.083266		0.006536
0.180000	2.510582		-0.087650		0.006530
0.190000	2.457899		-0.091949		0.006524
0.200000	2.402805		-0.096157		0.006520
0.210000	2.345354		-0.100271		0.006516
0.220000	2.285602		-0.104287		0.006513
0.230000	2.223608		-0.108200		0.006510
0.240000	2.159432		-0.112007		0.006509
0.250000	2.093138		-0.115705		0.006508
0.260000	2.024791		-0.119289		0.006508
0.270000	1.954457		-0.122755		0.006509
0.280000	1.882206		-0.126102		0.006511
0.290000	1.808109		-0.129324		0.006514
0.300000	1.732238		-0.132420		0.006517
0.310000	1.654667		-0.135386		0.006521
0.320000	1.575473		-0.138219		0.006526
0.330000	1.494734		-0.140917		0.006532
0.340000	1.412528		-0.143476		0.006538
0.350000	1.328937		-0.145894		0.006546
0.360000	1.244042		-0.148170		0.006553
0.370000	1.157927		-0.150300		0.006562
0.380000	1.070675		-0.152282		0.006571
0.390000	0.982374		-0.154115		0.006581
0.400000	0.893108		-0.155797		0.006591
0.410000	0.802967		-0.157327		0.006602
0.420000	0.712038		-0.158701		0.006613
0.430000	0.620410		-0.159921		0.006625
0.440000	0.528174		-0.160983		0.006636
0.450000	0.435419		-0.161887		0.006649
0.460000	0.342238		-0.162633		0.006661
0.470000	0.248720		-0.163219		0.006674
0.480000	0.154959		-0.163644		0.006687
0.490000	0.061046		-0.163910		0.006700
0.500000	-0.032928		-0.164014		0.006713
0.510000	-0.126869		-0.163958		0.006727
0.520000	-0.220685		-0.163741		0.006740
0.530000	-0.314285		-0.163363		0.006753
0.540000	-0.407577		-0.162825		0.006766
0.550000	-0.500469		-0.162127		0.006779
0.560000	-0.592870		-0.161270		0.006791
0.570000	-0.684689		-0.160255		0.006803
0.580000	-0.775836		-0.159083		0.006815
0.590000	-0.866223		-0.157754		0.006827
0.600000	-0.955760		-0.156271		0.006838
0.610000	-1.044359		-0.154635		0.006849
0.620000	-1.131933		-0.152847		0.006859
0.630000	-1.218398		-0.150909		0.006868
0.640000	-1.303667		-0.148822		0.006877
0.650000	-1.387657		-0.146590		0.006886
0.660000	-1.470285		-0.144214		0.006893
0.670000	-1.551472		-0.141697		0.006900
0.680000	-1.631136		-0.139041		0.006907
0.690000	-1.709201		-0.136248		0.006912
0.700000	-1.785588		-0.133321		0.006917
0.710000	-1.860224		-0.130264		0.006921
0.720000	-1.933035		-0.127079		0.006924
0.730000	-2.003950		-0.123770		0.006927
0.740000	-2.072899		-0.120338		0.006928
0.750000	-2.139814		-0.116789		0.006929
0.760000	-2.204630		-0.113126		0.006929
0.770000	-2.267283		-0.109351		0.006928
0.780000	-2.327713		-0.105469		0.006927
0.790000	-2.385858		-0.101483		0.006924
0.800000	-2.441664		-0.097398		0.006921
0.810000	-2.495074		-0.093218		0.006917
0.820000	-2.546036		-0.088946		0.006912
0.830000	-2.594500		-0.084587		0.006906
0.840000	-2.640420		-0.080144		0.006900
0.850000	-2.683749		-0.075624		0.006893
0.860000	-2.724445		-0.071029		0.006885
0.870000	-2.762469		-0.066364		0.006877
0.880000	-2.797783		-0.061634		0.006868
0.890000	-2.830352		-0.056844		0.006858
0.900000	-2.860144		-0.051998		0.006848
0.910000	-2.887131		-0.047101		0.006837
0.920000	-2.911286		-0.042157		0.006826
0.930000	-2.932584		-0.037173		0.006815
0.940000	-2.951006		-0.032152		0.006803
0.950000	-2.966532		-0.027099		0.006790
0.960000	-2.979149		-0.022020		0.006778
0.970000	-2.988843		-0.016919		0.006765
0.980000	-2.995605		-0.011802		0.006752
0.990000	-2.999428		-0.006673		0.006739
1.000000	-3.000309		-0.001537		0.006726
1.010000	-2.998246		0.003600		0.006713
1.020000	-2.993242		0.008733		0.006700
1.030000	-2.985302		0.013858		0.006686
1.040000	-2.974433		0.018970		0.006674
1.050000	-2.960647		0.024062		0.006661
1.060000	-2.943956		0.029131		0.006648
1.070000	-2.924377		0.034172		0.006636
1.080000	-2.901929		0.039179		0.006624
1.090000	-2.876634		0.044148		0.006612
1.100000	-2.848517		0.049073		0.006601
1.110000	-2.817606		0.053950		0.006590
1.120000	-2.783931		0.058774		0.006580
1.130000	-2.747525		0.063541		0.006571
1.140000	-2.708423		0.068245		0.006561
1.150000	-2.666665		0.072882		0.006553
1.160000	-2.622290		0.077448		0.006545
1.170000	-2.575343		0.081938		0.006538
1.180000	-2.525870		0.086347		0.006532
1.190000	-2.473919		0.090672		0.006526
1.200000	-2.419541		0.094908		0.006521
1.210000	-2.362789		0.099050		0.006517
1.220000	-2.303719		0.103096		0.006513
1.230000	-2.242390		0.107040		0.006511
1.240000	-2.178861		0.110880		0.006509
1.250000	-2.113194		0.114610		0.006508
1.260000	-2.045454		0.118228		0.006508
1.270000	-1.975708		0.121730		0.006509
1.280000	-1.904023		0.125113		0.006510
1.290000	-1.830471		0.128373		0.006513
1.300000	-1.755122		0.131507		0.006516
1.310000	-1.678052		0.134512		0.006520
1.320000	-1.599336		0.137385		0.006525
1.330000	-1.519051		0.140124		0.006530
1.340000	-1.437276		0.142725		0.006536
1.350000	-1.354091		0.145186		0.006543
1.360000	-1.269577		0.147504		0.006551
1.370000	-1.183818		0.149678		0.006559
1.380000	-1.096898		0.151705		0.006568
1.390000	-1.008902		0.153583		0.006578
1.400000	-0.919916		0.155310		0.006588
1.410000	-0.830027		0.156885		0.006598
1.420000	-0.739324		0.158306		0.006610
1.430000	-0.647896		0.159572		0.006621
1.440000	-0.555832		0.160681		0.006633
1.450000	-0.463223		0.161633		0.006645
1.460000	-0.370160		0.162426		0.006658
1.470000	-0.276734		0.163060		0.006670
1.480000	-0.183036		0.163534		0.006683
1.490000	-0.089158		0.163847		0.006696
1.500000	0.004807		0.164000		0.006709
1.510000	0.098767		0.163992		0.006723
1.520000	0.192631		0.163823		0.006736
1.530000	0.286305		0.163493		0.006749
1.540000	0.379699		0.163003		0.006762
1.550000	0.472720		0.162352		0.006775
1.560000	0.565277		0.161543		0.006787
1.570000	0.657280		0.160575		0.006800
1.580000	0.748638		0.159450		0.006812
1.590000	0.839261		0.158168		0.006823
1.600000	0.929062		0.156731		0.006835
1.610000	1.017950		0.155140		0.006845
1.620000	1.105841		0.153397		0.006856
1.630000	1.192646		0.151504		0.006865
1.640000	1.278282		0.149462		0.006875
1.650000	1.362663		0.147273		0.006883
1.660000	1.445708		0.144940		0.006891
1.670000	1.527334		0.142465		0.006898
1.680000	1.607462		0.139850		0.006905
1.690000	1.686013		0.137098		0.006911
1.700000	1.762911		0.134211		0.006916
1.710000	1.838078		0.131193		0.006920
1.720000	1.911443		0.128045		0.006923
1.730000	1.982933		0.124773		0.006926
1.740000	2.052477		0.121378		0.006928
1.750000	2.120008		0.117863		0.006929
1.760000	2.185459		0.114234		0.006929
1.770000	2.248766		0.110492		0.006929
1.780000	2.309867		0.106642		0.006927
1.790000	2.368702		0.102687		0.006925
1.800000	2.425213		0.098631		0.006922
1.810000	2.479346		0.094479		0.006918
1.820000	2.531046		0.090234		0.006914
1.830000	2.580263		0.085900		0.006908
1.840000	2.626949		0.081482		0.006902
1.850000	2.671058		0.076984		0.006895
1.860000	2.712546		0.072411		0.006888
1.870000	2.751374		0.067767		0.006879
1.880000	2.787502		0.063056		0.006871
1.890000	2.820896		0.058283		0.006861
1.900000	2.851522		0.053453		0.006851
1.910000	2.879352		0.048571		0.006841
1.920000	2.904356		0.043641		0.006830
1.930000	2.926511		0.038668		0.006818
1.940000	2.945796		0.033658		0.006806
1.950000	2.962191		0.028614		0.006794
1.960000	2.975679		0.023542		0.006782
1.970000	2.986249		0.018447		0.006769
1.980000	2.993889		0.013334		0.006756
1.990000	2.998592		0.008208		0.006743
2.000000	3.000354		0.003074		0.006730
2.010000	2.999172		-0.002063		0.006717
2.020000	2.995048		-0.007198		0.006704
2.030000	2.987986		-0.012326		0.006690
2.040000	2.977992		-0.017442		0.006677
2.050000	2.965077		-0.022541		0.006665
2.060000	2.949254		-0.027617		0.006652
2.070000	2.930537		-0.032667		0.006640
2.080000	2.908945		-0.037685		0.006627
2.090000	2.884500		-0.042665		0.006616
2.100000	2.857225		-0.047604		0.006604
2.110000	2.827147		-0.052496		0.006594
2.120000	2.794296		-0.057336		0.006583
2.130000	2.758703		-0.062121		0.006573
2.140000	2.720404		-0.066844		0.006564
2.150000	2.679437		-0.071502		0.006555
2.160000	2.635840		-0.076090		0.006547
2.170000	2.589659		-0.080603		0.006540
2.180000	2.540936		-0.085037		0.006533
2.190000	2.489721		-0.089387		0.006528
2.200000	2.436064		-0.093650		0.006522
2.210000	2.380017		-0.097821		0.006518
2.220000	2.321635		-0.101896		0.006514
2.230000	2.260975		-0.105871		0.006512
2.240000	2.198098		-0.109742		0.006510
2.250000	2.133064		-0.113505		0.006508
2.260000	2.065937		-0.117158		0.006508
2.270000	1.996784		-0.120695		0.006509
2.280000	1.925672		-0.124114		0.006510
2.290000	1.852671		-0.127411		0.006512
2.300000	1.777853		-0.130583		0.006515
2.310000	1.701290		-0.133627		0.006519
2.320000	1.623059		-0.136540		0.006523
2.330000	1.543235		-0.139319		0.006528
2.340000	1.461898		-0.141961		0.006534
2.350000	1.379126		-0.144464		0.006541
2.360000	1.295001		-0.146825		0.006549
2.370000	1.209606		-0.149043		0.006557
2.380000	1.123024		-0.151114		0.006566
2.390000	1.035341		-0.153036		0.006575
2.400000	0.946642		-0.154809		0.006585
2.410000	0.857014		-0.156430		0.006595
2.420000	0.766546		-0.157897		0.006606
2.430000	0.675325		-0.159210		0.006618
2.440000	0.583442		-0.160366		0.006629
2.450000	0.490987		-0.161365		0.006641
2.460000	0.398050		-0.162206		0.006654
2.470000	0.304723		-0.162887		0.006666
2.480000	0.211096		-0.163409		0.006679
2.490000	0.117263		-0.163770		0.006692
2.500000	0.023314		-0.163971		0.006706
2.510000	-0.070657		-0.164011		0.006719
2.520000	-0.164559		-0.163890		0.006732
2.530000	-0.258300		-0.163608		0.006745
2.540000	-0.351787		-0.163166		0.006758
2.550000	-0.444929		-0.162564		0.006771
2.560000	-0.537635		-0.161802		0.006784
2.570000	-0.629813		-0.160881		0.006796
2.580000	-0.721373		-0.159803		0.006808
2.590000	-0.812226		-0.158568		0.006820
2.600000	-0.902282		-0.157177		0.006831
2.610000	-0.991453		-0.155632		0.006842
2.620000	-1.079651		-0.153935		0.006853
2.630000	-1.166790		-0.152086		0.006863
2.640000	-1.252784		-0.150089		0.006872
2.650000	-1.337550		-0.147944		0.006881
2.660000	-1.421003		-0.145653		0.006889
2.670000	-1.503062		-0.143220		0.006896
2.680000	-1.583647		-0.140647		0.006903
2.690000	-1.662678		-0.137935		0.006909
2.700000	-1.740078		-0.135089		0.006914
2.710000	-1.815771		-0.132109		0.006919
2.720000	-1.889683		-0.129000		0.006923
2.730000	-1.961741		-0.125765		0.006925
2.740000	-2.031875		-0.122406		0.006928
2.750000	-2.100015		-0.118927		0.006929
2.760000	-2.166096		-0.115332		0.006929
2.770000	-2.230051		-0.111623		0.006929
2.780000	-2.291818		-0.107805		0.006928
2.790000	-2.351338		-0.103881		0.006926
2.800000	-2.408550		-0.099855		0.006923
2.810000	-2.463400		-0.095731		0.006919
2.820000	-2.515833		-0.091513		0.006915
2.830000	-2.565799		-0.087206		0.006910
2.840000	-2.613247		-0.082813		0.006904
2.850000	-2.658132		-0.078338		0.006897
2.860000	-2.700408		-0.073787		0.006890
2.870000	-2.740036		-0.069164		0.006882
2.880000	-2.776976		-0.064472		0.006873
2.890000	-2.811192		-0.059718		0.006864
2.900000	-2.842650		-0.054904		0.006854
2.910000	-2.871319		-0.050037		0.006844
2.920000	-2.897172		-0.045121		0.006833
2.930000	-2.920182		-0.040161		0.006822
2.940000	-2.940328		-0.035161		0.006810
2.950000	-2.957589		-0.030126		0.006798
2.960000	-2.971949		-0.025063		0.006785
2.970000	-2.983393		-0.019974		0.006773
2.980000	-2.991911		-0.014866		0.006760
2.990000	-2.997493		-0.009743		0.006747
3.000000	-3.000135		-0.004611		0.006734
3.010000	-2.999834		0.000526		0.006721
3.020000	-2.996590		0.005662		0.006707
3.030000	-2.990406		0.010792		0.006694
3.040000	-2.981289		0.015913		0.006681
3.050000	-2.969247		0.021017		0.006668
3.060000	-2.954293		0.026101		0.006656
3.070000	-2.936440		0.031159		0.006643
3.080000	-2.915706		0.036187		0.006631
3.090000	-2.892113		0.041179		0.006619
3.100000	-2.865682		0.046131		0.006608
3.110000	-2.836440		0.051037		0.006597
3.120000	-2.804415		0.055894		0.006586
3.130000	-2.769639		0.060695		0.006576
3.140000	-2.732146		0.065437		0.006567
3.150000	-2.691973		0.070115		0.006558
3.160000	-2.649159		0.074724		0.006550
3.170000	-2.603746		0.079260		0.006542
3.180000	-2.555779		0.083718		0.006535
3.190000	-2.505305		0.088094		0.006529
3.200000	-2.452373		0.092384		0.006524
3.210000	-2.397035		0.096583		0.006519
3.220000	-2.339346		0.100687		0.006515
3.230000	-2.279362		0.104692		0.006512
3.240000	-2.217142		0.108595		0.006510
3.250000	-2.152747		0.112391		0.006509
3.260000	-2.086239		0.116077		0.006508
3.270000	-2.017686		0.119649		0.006508
3.280000	-1.947153		0.123103		0.006509
3.290000	-1.874710		0.126437		0.006511
3.300000	-1.800427		0.129647		0.006514
3.310000	-1.724379		0.132730		0.006517
3.320000	-1.646639		0.135682		0.006522
3.330000	-1.567283		0.138501		0.006527
3.340000	-1.486391		0.141185		0.006533
3.350000	-1.404039		0.143730		0.006539
3.360000	-1.320311		0.146134		0.006546
3.370000	-1.235287		0.148394		0.006554
3.380000	-1.149052		0.150509		0.006563
3.390000	-1.061689		0.152477		0.006572
3.400000	-0.973285		0.154294		0.006582
3.410000	-0.883926		0.155961		0.006592
3.420000	-0.793700		0.157474		0.006603
3.430000	-0.702695		0.158833		0.006614
3.440000	-0.611001		0.160036		0.006626
3.450000	-0.518707		0.161083		0.006638
3.460000	-0.425905		0.161971		0.006650
3.470000	-0.332685		0.162700		0.006663
3.480000	-0.239138		0.163270		0.006675
3.490000	-0.145357		0.163679		0.006688
3.500000	-0.051433		0.163928		0.006702
3.510000	0.042541		0.164016		0.006715
3.520000	0.136473		0.163943		0.006728
3.530000	0.230272		0.163709		0.006741
3.540000	0.323844		0.163315		0.006754
3.550000	0.417099		0.162761		0.006767
3.560000	0.509945		0.162046		0.006780
3.570000	0.602291		0.161173		0.006792
3.580000	0.694045		0.160142		0.006805
3.590000	0.785119		0.158954		0.006816
3.600000	0.875423		0.157610		0.006828
3.610000	0.964868		0.156111		0.006839
3.620000	1.053366		0.154459		0.006850
3.630000	1.140831		0.152655		0.006860
3.640000	1.227177		0.150702		0.006869
3.650000	1.312319		0.148601		0.006878
3.660000	1.396173		0.146354		0.006886
3.670000	1.478658		0.143963		0.006894
3.680000	1.559693		0.141432		0.006901
3.690000	1.639197		0.138761		0.006907
3.700000	1.717093		0.135955		0.006913
3.710000	1.793305		0.133015		0.006918
3.720000	1.867758		0.129944		0.006921
3.730000	1.940378		0.126746		0.006925
3.740000	2.011095		0.123424		0.006927
3.750000	2.079838		0.119981		0.006929
3.760000	2.146542		0.116420		0.006929
3.770000	2.211140		0.112744		0.006929
3.780000	2.273568		0.108959		0.006928
3.790000	2.333767		0.105066		0.006926
3.800000	2.391676		0.101070		0.006924
3.810000	2.447238		0.096975		0.006921
3.820000	2.500400		0.092785		0.006916
3.830000	2.551109		0.088504		0.006911
3.840000	2.599316		0.084136		0.006906
3.850000	2.644972		0.079686		0.006899
3.860000	2.688034		0.075157		0.006892
3.870000	2.728458		0.070555		0.006884
3.880000	2.766207		0.065883		0.006876
3.890000	2.801241		0.061147		0.006867
3.900000	2.833528		0.056351		0.006857
3.910000	2.863034		0.051499		0.006847
3.920000	2.889733		0.046597		0.006836
3.930000	2.913596		0.041649		0.006825
3.940000	2.934601		0.036661		0.006813
3.950000	2.952727		0.031636		0.006801
3.960000	2.967957		0.026581		0.006789
3.970000	2.980275		0.021499		0.006777
3.980000	2.989669		0.016396		0.006764
3.990000	2.996131		0.011278		0.006751
4.000000	2.999653		0.006148		0.006738
4.010000	3.000233		0.001012		0.006725
4.020000	2.997869		-0.004125		0.006711
4.030000	2.992565		-0.009258		0.006698
4.040000	2.984325		-0.014382		0.006685
4.050000	2.973157		-0.019491		0.006672
4.060000	2.959072		-0.024582		0.006659
4.070000	2.942085		-0.029648		0.006647
4.080000	2.922212		-0.034686		0.006635
4.090000	2.899471		-0.039689		0.006623
4.100000	2.873887		-0.044653		0.006611
4.110000	2.845483		-0.049574		0.006600
4.120000	2.814288		-0.054446		0.006589
4.130000	2.780332		-0.059265		0.006579
4.140000	2.743648		-0.064025		0.006570
4.150000	2.704273		-0.068723		0.006561
4.160000	2.662245		-0.073353		0.006552
4.170000	2.617605		-0.077911		0.006544
4.180000	2.570398		-0.082393		0.006537
4.190000	2.520669		-0.086794		0.006531
4.200000	2.468467		-0.091109		0.006525
4.210000	2.413843		-0.095336		0.006521
4.220000	2.356852		-0.099469		0.006516
4.230000	2.297548		-0.103504		0.006513
4.240000	2.235991		-0.107438		0.006511
4.250000	2.172240		-0.111266		0.006509
4.260000	2.106358		-0.114986		0.006508
4.270000	2.038410		-0.118592		0.006508
4.280000	1.968462		-0.122082		0.006509
4.290000	1.896583		-0.125452		0.006511
4.300000	1.822844		-0.128700		0.006513
4.310000	1.747316		-0.131821		0.006516
4.320000	1.670074		-0.134812		0.006520
4.330000	1.591194		-0.137672		0.006525
4.340000	1.510753		-0.140396		0.006531
4.350000	1.428830		-0.142983		0.006537
4.360000	1.345505		-0.145429		0.006544
4.370000	1.260860		-0.147733		0.006552
4.380000	1.174978		-0.149892		0.006560
4.390000	1.087944		-0.151904		0.006569
4.400000	0.999843		-0.153766		0.006579
4.410000	0.910760		-0.155478		0.006589
4.420000	0.820784		-0.157038		0.006600
4.430000	0.730003		-0.158443		0.006611
4.440000	0.638506		-0.159693		0.006622
4.450000	0.546382		-0.160786		0.006634
4.460000	0.453723		-0.161722		0.006646
4.470000	0.360618		-0.162498		0.006659
4.480000	0.267159		-0.163116		0.006672
4.490000	0.173439		-0.163573		0.006685
4.500000	0.079548		-0.163870		0.006698
4.510000	-0.014421		-0.164006		0.006711
4.520000	-0.108375		-0.163982		0.006724
4.530000	-0.202224		-0.163796		0.006737
4.540000	-0.295873		-0.163450		0.006750
4.550000	-0.389233		-0.162943		0.006763
4.560000	-0.482211		-0.162277		0.006776
4.570000	-0.574716		-0.161451		0.006789
4.580000	-0.666657		-0.160467		0.006801
4.590000	-0.757944		-0.159326		0.006813
4.600000	-0.848487		-0.158028		0.006825
4.610000	-0.938198		-0.156575		0.006836
4.620000	-1.026989		-0.154969		0.006846
4.630000	-1.114772		-0.153211		0.006857
4.640000	-1.201462		-0.151302		0.006866
4.650000	-1.286973		-0.149245		0.006876
4.660000	-1.371221		-0.147041		0.006884
4.670000	-1.454124		-0.144694		0.006892
4.680000	-1.535601		-0.142204		0.006899
4.690000	-1.615572		-0.139575		0.006905
4.700000	-1.693957		-0.136809		0.006911
4.710000	-1.770681		-0.133908		0.006916
4.720000	-1.845668		-0.130876		0.006920
4.730000	-1.918844		-0.127716		0.006924
4.740000	-1.990137		-0.124431		0.006926
4.750000	-2.059479		-0.121024		0.006928
4.760000	-2.126800		-0.117497		0.006929
4.770000	-2.192035		-0.113856		0.006929
4.780000	-2.255119		-0.110103		0.006929
4.790000	-2.315991		-0.106242		0.006927
4.800000	-2.374591		-0.102276		0.006925
4.810000	-2.430861		-0.098211		0.006922
4.820000	-2.484747		-0.094049		0.006918
4.830000	-2.536195		-0.089794		0.006913
4.840000	-2.585156		-0.085452		0.006908
4.850000	-2.631580		-0.081026		0.006901
4.860000	-2.675423		-0.076520		0.006894
4.870000	-2.716641		-0.071939		0.006887
4.880000	-2.755194		-0.067288		0.006878
4.890000	-2.791044		-0.062570		0.006870
4.900000	-2.824156		-0.057792		0.006860
4.910000	-2.854498		-0.052956		0.006850
4.920000	-2.882040		-0.048069		0.006839
4.930000	-2.906754		-0.043134		0.006828
4.940000	-2.928616		-0.038158		0.006817
4.950000	-2.947606		-0.033143		0.006805
4.960000	-2.963704		-0.028096		0.006793
